# energy [eV], band-resolved DOS
  -17.669947    0.001627
  -17.595353    0.001665
  -17.520760    0.001704
  -17.446166    0.001745
  -17.371572    0.001787
  -17.296979    0.001830
  -17.222385    0.001876
  -17.147792    0.001922
  -17.073198    0.001971
  -16.998605    0.002022
  -16.924011    0.002074
  -16.849417    0.002129
  -16.774824    0.002185
  -16.700230    0.002244
  -16.625637    0.002306
  -16.551043    0.002370
  -16.476450    0.002436
  -16.401856    0.002506
  -16.327262    0.002579
  -16.252669    0.002654
  -16.178075    0.002734
  -16.103482    0.002816
  -16.028888    0.002903
  -15.954295    0.002993
  -15.879701    0.003088
  -15.805107    0.003188
  -15.730514    0.003292
  -15.655920    0.003402
  -15.581327    0.003517
  -15.506733    0.003638
  -15.432139    0.003766
  -15.357546    0.003900
  -15.282952    0.004042
  -15.208359    0.004191
  -15.133765    0.004349
  -15.059172    0.004516
  -14.984578    0.004692
  -14.909984    0.004880
  -14.835391    0.005079
  -14.760797    0.005290
  -14.686204    0.005514
  -14.611610    0.005753
  -14.537017    0.006008
  -14.462423    0.006281
  -14.387829    0.006572
  -14.313236    0.006884
  -14.238642    0.007218
  -14.164049    0.007578
  -14.089455    0.007965
  -14.014862    0.008383
  -13.940268    0.008834
  -13.865674    0.009322
  -13.791081    0.009852
  -13.716487    0.010428
  -13.641894    0.011057
  -13.567300    0.011744
  -13.492707    0.012496
  -13.418113    0.013323
  -13.343519    0.014235
  -13.268926    0.015243
  -13.194332    0.016362
  -13.119739    0.017609
  -13.045145    0.019002
  -12.970552    0.020567
  -12.895958    0.022333
  -12.821364    0.024334
  -12.746771    0.026615
  -12.672177    0.029231
  -12.597584    0.032249
  -12.522990    0.035755
  -12.448397    0.039859
  -12.373803    0.044705
  -12.299209    0.050480
  -12.224616    0.057433
  -12.150022    0.065903
  -12.075429    0.076354
  -12.000835    0.089443
  -11.926242    0.106107
  -11.851648    0.127728
  -11.777054    0.156385
  -11.702461    0.195297
  -11.627867    0.249567
  -11.553274    0.327431
  -11.478680    0.442119
  -11.404087    0.613411
  -11.329493    0.862616
  -11.254899    1.177944
  -11.180306    1.430264
  -11.105712    1.408749
  -11.031119    1.135095
  -10.956525    0.824610
  -10.881932    0.586494
  -10.807338    0.424081
  -10.732744    0.315292
  -10.658151    0.241202
  -10.583557    0.189367
  -10.508964    0.152063
  -10.434370    0.124498
  -10.359777    0.103638
  -10.285183    0.087518
  -10.210589    0.074827
  -10.135996    0.064672
  -10.061402    0.056428
   -9.986809    0.049649
   -9.912215    0.044011
   -9.837622    0.039274
   -9.763028    0.035256
   -9.688434    0.031821
   -9.613841    0.028861
   -9.539247    0.026294
   -9.464654    0.024052
   -9.390060    0.022085
   -9.315467    0.020348
   -9.240873    0.018807
   -9.166279    0.017435
   -9.091686    0.016206
   -9.017092    0.015103
   -8.942499    0.014108
   -8.867905    0.013209
   -8.793312    0.012392
   -8.718718    0.011649
   -8.644124    0.010970
   -8.569531    0.010349
   -8.494937    0.009779
   -8.420344    0.009255
   -8.345750    0.008772
   -8.271156    0.008325
   -8.196563    0.007912
   -8.121969    0.007529
   -8.047376    0.007172
   -7.972782    0.006841
   -7.898189    0.006532
   -7.823595    0.006243
   -7.749001    0.005973
   -7.674408    0.005721
   -7.599814    0.005483
   -7.525221    0.005261
   -7.450627    0.005051
   -7.376034    0.004854
   -7.301440    0.004668
   -7.226846    0.004493
   -7.152253    0.004327
   -7.077659    0.004171
   -7.003066    0.004022
   -6.928472    0.003882
   -6.853879    0.003748
   -6.779285    0.003622
   -6.704691    0.003501
   -6.630098    0.003387
   -6.555504    0.003278
   -6.480911    0.003174
   -6.406317    0.003076
   -6.331724    0.002981
   -6.257130    0.002891
   -6.182536    0.002805
   -6.107943    0.002723
   -6.033349    0.002644
   -5.958756    0.002569
   -5.884162    0.002497
   -5.809569    0.002427
   -5.734975    0.002361
   -5.660381    0.002297
   -5.585788    0.002236
   -5.511194    0.002178
   -5.436601    0.002121
   -5.362007    0.002067
   -5.287414    0.002015
   -5.212820    0.001964
   -5.138226    0.001916
   -5.063633    0.001869
   -4.989039    0.001824
   -4.914446    0.001781
   -4.839852    0.001739
   -4.765259    0.001699
   -4.690665    0.001660
   -4.616071    0.001622
   -4.541478    0.001586
   -4.466884    0.001551
   -4.392291    0.001517
   -4.317697    0.001484
   -4.243104    0.001452
   -4.168510    0.001421
   -4.093916    0.001391
   -4.019323    0.001362
   -3.944729    0.001334
   -3.870136    0.001307
   -3.795542    0.001281
   -3.720949    0.001255
   -3.646355    0.001230
   -3.571761    0.001206
   -3.497168    0.001183
   -3.422574    0.001160
   -3.347981    0.001138
   -3.273387    0.001117
   -3.198794    0.001096
   -3.124200    0.001076
   -3.049606    0.001056
   -2.975013    0.001037
   -2.900419    0.001018
   -2.825826    0.001000
   -2.751232    0.000982
   -2.676639    0.000965
   -2.602045    0.000948
   -2.527451    0.000932
   -2.452858    0.000916
   -2.378264    0.000900
   -2.303671    0.000885
   -2.229077    0.000871
   -2.154484    0.000856
   -2.079890    0.000842
   -2.005296    0.000829
   -1.930703    0.000815
   -1.856109    0.000802
   -1.781516    0.000789
   -1.706922    0.000777
   -1.632329    0.000765
   -1.557735    0.000753
   -1.483141    0.000741
   -1.408548    0.000730
   -1.333954    0.000719
   -1.259361    0.000708
   -1.184767    0.000698
   -1.110173    0.000687
   -1.035580    0.000677
   -0.960986    0.000667
   -0.886393    0.000658
   -0.811799    0.000648
   -0.737206    0.000639
   -0.662612    0.000630
   -0.588018    0.000621
   -0.513425    0.000612
   -0.438831    0.000604
   -0.364238    0.000596
   -0.289644    0.000587
   -0.215051    0.000579
   -0.140457    0.000572
   -0.065863    0.000564
    0.008730    0.000556
    0.083324    0.000549
    0.157917    0.000542
    0.232511    0.000535
    0.307104    0.000528
    0.381698    0.000521
    0.456292    0.000514
    0.530885    0.000508
    0.605479    0.000501
    0.680072    0.000495
    0.754666    0.000489
    0.829259    0.000483
    0.903853    0.000477
    0.978447    0.000471
    1.053040    0.000465
    1.127634    0.000460
    1.202227    0.000454
    1.276821    0.000449
    1.351414    0.000443
    1.426008    0.000438
    1.500602    0.000433
    1.575195    0.000428
    1.649789    0.000423
    1.724382    0.000418
    1.798976    0.000413
    1.873569    0.000409
    1.948163    0.000404
    2.022757    0.000399
    2.097350    0.000395
    2.171944    0.000390
    2.246537    0.000386
    2.321131    0.000382
    2.395724    0.000378
    2.470318    0.000374
    2.544912    0.000369
    2.619505    0.000365
    2.694099    0.000362
    2.768692    0.000358
    2.843286    0.000354
    2.917879    0.000350
    2.992473    0.000346
    3.067067    0.000343
    3.141660    0.000339
    3.216254    0.000336
    3.290847    0.000332
    3.365441    0.000329
    3.440034    0.000326
    3.514628    0.000322
    3.589222    0.000319
    3.663815    0.000316
    3.738409    0.000313
    3.813002    0.000310
    3.887596    0.000306
    3.962189    0.000303
    4.036783    0.000300
    4.111377    0.000298
    4.185970    0.000295
    4.260564    0.000292
    4.335157    0.000289
    4.409751    0.000286
    4.484344    0.000284
    4.558938    0.000281
    4.633532    0.000278
    4.708125    0.000276
    4.782719    0.000273
    4.857312    0.000270
    4.931906    0.000268
    5.006499    0.000265
    5.081093    0.000263
    5.155687    0.000261
    5.230280    0.000258
    5.304874    0.000256
    5.379467    0.000254
    5.454061    0.000251
    5.528654    0.000249
    5.603248    0.000247
    5.677842    0.000245
    5.752435    0.000243
    5.827029    0.000240
    5.901622    0.000238
    5.976216    0.000236
    6.050810    0.000234
    6.125403    0.000232
    6.199997    0.000230
    6.274590    0.000228
    6.349184    0.000226
    6.423777    0.000224
    6.498371    0.000222
    6.572965    0.000221
    6.647558    0.000219
    6.722152    0.000217
    6.796745    0.000215
    6.871339    0.000213
    6.945932    0.000212
    7.020526    0.000210
    7.095120    0.000208
    7.169713    0.000206
    7.244307    0.000205
    7.318900    0.000203
    7.393494    0.000202
    7.468087    0.000200
    7.542681    0.000198
    7.617275    0.000197
    7.691868    0.000195
    7.766462    0.000194
    7.841055    0.000192
    7.915649    0.000191
    7.990242    0.000189
    8.064836    0.000188
    8.139430    0.000186
    8.214023    0.000185
    8.288617    0.000183
    8.363210    0.000182
    8.437804    0.000181
    8.512397    0.000179
    8.586991    0.000178
    8.661585    0.000177
    8.736178    0.000175
    8.810772    0.000174
    8.885365    0.000173
    8.959959    0.000171
    9.034552    0.000170
    9.109146    0.000169
    9.183740    0.000168
    9.258333    0.000166
    9.332927    0.000165
    9.407520    0.000164
    9.482114    0.000163
    9.556707    0.000162
    9.631301    0.000160
    9.705895    0.000159
    9.780488    0.000158
    9.855082    0.000157
    9.929675    0.000156
   10.004269    0.000155
   10.078862    0.000154
   10.153456    0.000153
   10.228050    0.000152
   10.302643    0.000151
   10.377237    0.000150
   10.451830    0.000149
   10.526424    0.000147
   10.601017    0.000146
   10.675611    0.000145
   10.750205    0.000144
   10.824798    0.000144
   10.899392    0.000143
   10.973985    0.000142
   11.048579    0.000141
   11.123172    0.000140
   11.197766    0.000139
   11.272360    0.000138
   11.346953    0.000137
   11.421547    0.000136
   11.496140    0.000135
   11.570734    0.000134
   11.645327    0.000133
   11.719921    0.000132
   11.794515    0.000132
   11.869108    0.000131
   11.943702    0.000130
   12.018295    0.000129
   12.092889    0.000128
   12.167482    0.000127
   12.242076    0.000127
   12.316670    0.000126
   12.391263    0.000125
   12.465857    0.000124
   12.540450    0.000123
   12.615044    0.000123
   12.689637    0.000122
   12.764231    0.000121
   12.838825    0.000120
   12.913418    0.000120
   12.988012    0.000119
   13.062605    0.000118
   13.137199    0.000117
   13.211793    0.000117
   13.286386    0.000116
   13.360980    0.000115
   13.435573    0.000115
   13.510167    0.000114
   13.584760    0.000113
   13.659354    0.000113
   13.733948    0.000112
   13.808541    0.000111
   13.883135    0.000111
   13.957728    0.000110
   14.032322    0.000109
   14.106915    0.000109
   14.181509    0.000108
   14.256103    0.000107
   14.330696    0.000107
   14.405290    0.000106
   14.479883    0.000105
   14.554477    0.000105
   14.629070    0.000104
   14.703664    0.000104
   14.778258    0.000103
   14.852851    0.000102
   14.927445    0.000102
   15.002038    0.000101
   15.076632    0.000101
   15.151225    0.000100
   15.225819    0.000100
   15.300413    0.000099
   15.375006    0.000098
   15.449600    0.000098
   15.524193    0.000097
   15.598787    0.000097
   15.673380    0.000096
   15.747974    0.000096
   15.822568    0.000095
   15.897161    0.000095
   15.971755    0.000094
   16.046348    0.000094
   16.120942    0.000093
   16.195535    0.000093
   16.270129    0.000092
   16.344723    0.000092
   16.419316    0.000091
   16.493910    0.000091
   16.568503    0.000090
   16.643097    0.000090
   16.717690    0.000089
   16.792284    0.000089
   16.866878    0.000088
   16.941471    0.000088
   17.016065    0.000087
   17.090658    0.000087
   17.165252    0.000086
   17.239845    0.000086
   17.314439    0.000086
   17.389033    0.000085
   17.463626    0.000085
   17.538220    0.000084
   17.612813    0.000084
   17.687407    0.000083
   17.762000    0.000083
   17.836594    0.000082
   17.911188    0.000082
   17.985781    0.000082
   18.060375    0.000081
   18.134968    0.000081
   18.209562    0.000080
   18.284155    0.000080
   18.358749    0.000080
   18.433343    0.000079
   18.507936    0.000079
   18.582530    0.000078
   18.657123    0.000078
   18.731717    0.000078
   18.806310    0.000077
   18.880904    0.000077
   18.955498    0.000076
   19.030091    0.000076
   19.104685    0.000076
   19.179278    0.000075
   19.253872    0.000075
   19.328465    0.000075
   19.403059    0.000074
   19.477653    0.000074
   19.552246    0.000074
