# energy [eV], band-resolved DOS
  -17.669947    0.001719
  -17.595353    0.001760
  -17.520760    0.001802
  -17.446166    0.001846
  -17.371572    0.001892
  -17.296979    0.001940
  -17.222385    0.001989
  -17.147792    0.002040
  -17.073198    0.002093
  -16.998605    0.002149
  -16.924011    0.002206
  -16.849417    0.002266
  -16.774824    0.002329
  -16.700230    0.002394
  -16.625637    0.002461
  -16.551043    0.002532
  -16.476450    0.002606
  -16.401856    0.002683
  -16.327262    0.002763
  -16.252669    0.002847
  -16.178075    0.002935
  -16.103482    0.003027
  -16.028888    0.003124
  -15.954295    0.003225
  -15.879701    0.003331
  -15.805107    0.003443
  -15.730514    0.003560
  -15.655920    0.003683
  -15.581327    0.003813
  -15.506733    0.003950
  -15.432139    0.004095
  -15.357546    0.004247
  -15.282952    0.004408
  -15.208359    0.004578
  -15.133765    0.004759
  -15.059172    0.004950
  -14.984578    0.005153
  -14.909984    0.005369
  -14.835391    0.005599
  -14.760797    0.005844
  -14.686204    0.006105
  -14.611610    0.006384
  -14.537017    0.006682
  -14.462423    0.007002
  -14.387829    0.007345
  -14.313236    0.007715
  -14.238642    0.008112
  -14.164049    0.008542
  -14.089455    0.009006
  -14.014862    0.009509
  -13.940268    0.010055
  -13.865674    0.010649
  -13.791081    0.011298
  -13.716487    0.012008
  -13.641894    0.012786
  -13.567300    0.013643
  -13.492707    0.014588
  -13.418113    0.015635
  -13.343519    0.016797
  -13.268926    0.018095
  -13.194332    0.019547
  -13.119739    0.021181
  -13.045145    0.023028
  -12.970552    0.025125
  -12.895958    0.027520
  -12.821364    0.030273
  -12.746771    0.033457
  -12.672177    0.037166
  -12.597584    0.041521
  -12.522990    0.046679
  -12.448397    0.052848
  -12.373803    0.060307
  -12.299209    0.069435
  -12.224616    0.080757
  -12.150022    0.095017
  -12.075429    0.113295
  -12.000835    0.137188
  -11.926242    0.169130
  -11.851648    0.212917
  -11.777054    0.274621
  -11.702461    0.364057
  -11.627867    0.496755
  -11.553274    0.694340
  -11.478680    0.972443
  -11.404087    1.286665
  -11.329493    1.457808
  -11.254899    1.326351
  -11.180306    1.018541
  -11.105712    0.729740
  -11.031119    0.520872
  -10.956525    0.380191
  -10.881932    0.285595
  -10.807338    0.220585
  -10.732744    0.174642
  -10.658151    0.141258
  -10.583557    0.116372
  -10.508964    0.097393
  -10.434370    0.082625
  -10.359777    0.070929
  -10.285183    0.061520
  -10.210589    0.053845
  -10.135996    0.047507
  -10.061402    0.042216
   -9.986809    0.037755
   -9.912215    0.033961
   -9.837622    0.030707
   -9.763028    0.027897
   -9.688434    0.025453
   -9.613841    0.023316
   -9.539247    0.021435
   -9.464654    0.019773
   -9.390060    0.018295
   -9.315467    0.016977
   -9.240873    0.015796
   -9.166279    0.014733
   -9.091686    0.013774
   -9.017092    0.012906
   -8.942499    0.012116
   -8.867905    0.011397
   -8.793312    0.010740
   -8.718718    0.010138
   -8.644124    0.009585
   -8.569531    0.009076
   -8.494937    0.008607
   -8.420344    0.008173
   -8.345750    0.007771
   -8.271156    0.007397
   -8.196563    0.007050
   -8.121969    0.006727
   -8.047376    0.006426
   -7.972782    0.006144
   -7.898189    0.005880
   -7.823595    0.005633
   -7.749001    0.005402
   -7.674408    0.005184
   -7.599814    0.004979
   -7.525221    0.004786
   -7.450627    0.004604
   -7.376034    0.004432
   -7.301440    0.004270
   -7.226846    0.004116
   -7.152253    0.003971
   -7.077659    0.003833
   -7.003066    0.003702
   -6.928472    0.003578
   -6.853879    0.003460
   -6.779285    0.003347
   -6.704691    0.003240
   -6.630098    0.003138
   -6.555504    0.003041
   -6.480911    0.002948
   -6.406317    0.002860
   -6.331724    0.002775
   -6.257130    0.002694
   -6.182536    0.002617
   -6.107943    0.002542
   -6.033349    0.002471
   -5.958756    0.002403
   -5.884162    0.002338
   -5.809569    0.002275
   -5.734975    0.002215
   -5.660381    0.002157
   -5.585788    0.002101
   -5.511194    0.002048
   -5.436601    0.001996
   -5.362007    0.001947
   -5.287414    0.001899
   -5.212820    0.001853
   -5.138226    0.001809
   -5.063633    0.001766
   -4.989039    0.001725
   -4.914446    0.001685
   -4.839852    0.001646
   -4.765259    0.001609
   -4.690665    0.001573
   -4.616071    0.001538
   -4.541478    0.001505
   -4.466884    0.001472
   -4.392291    0.001441
   -4.317697    0.001410
   -4.243104    0.001381
   -4.168510    0.001352
   -4.093916    0.001324
   -4.019323    0.001297
   -3.944729    0.001271
   -3.870136    0.001246
   -3.795542    0.001222
   -3.720949    0.001198
   -3.646355    0.001175
   -3.571761    0.001152
   -3.497168    0.001130
   -3.422574    0.001109
   -3.347981    0.001088
   -3.273387    0.001068
   -3.198794    0.001049
   -3.124200    0.001030
   -3.049606    0.001011
   -2.975013    0.000993
   -2.900419    0.000976
   -2.825826    0.000959
   -2.751232    0.000942
   -2.676639    0.000926
   -2.602045    0.000910
   -2.527451    0.000895
   -2.452858    0.000880
   -2.378264    0.000865
   -2.303671    0.000851
   -2.229077    0.000837
   -2.154484    0.000824
   -2.079890    0.000810
   -2.005296    0.000798
   -1.930703    0.000785
   -1.856109    0.000773
   -1.781516    0.000761
   -1.706922    0.000749
   -1.632329    0.000737
   -1.557735    0.000726
   -1.483141    0.000715
   -1.408548    0.000704
   -1.333954    0.000694
   -1.259361    0.000684
   -1.184767    0.000674
   -1.110173    0.000664
   -1.035580    0.000654
   -0.960986    0.000645
   -0.886393    0.000636
   -0.811799    0.000627
   -0.737206    0.000618
   -0.662612    0.000609
   -0.588018    0.000601
   -0.513425    0.000593
   -0.438831    0.000585
   -0.364238    0.000577
   -0.289644    0.000569
   -0.215051    0.000561
   -0.140457    0.000554
   -0.065863    0.000547
    0.008730    0.000539
    0.083324    0.000532
    0.157917    0.000525
    0.232511    0.000519
    0.307104    0.000512
    0.381698    0.000506
    0.456292    0.000499
    0.530885    0.000493
    0.605479    0.000487
    0.680072    0.000481
    0.754666    0.000475
    0.829259    0.000469
    0.903853    0.000463
    0.978447    0.000458
    1.053040    0.000452
    1.127634    0.000447
    1.202227    0.000441
    1.276821    0.000436
    1.351414    0.000431
    1.426008    0.000426
    1.500602    0.000421
    1.575195    0.000416
    1.649789    0.000412
    1.724382    0.000407
    1.798976    0.000402
    1.873569    0.000398
    1.948163    0.000393
    2.022757    0.000389
    2.097350    0.000385
    2.171944    0.000380
    2.246537    0.000376
    2.321131    0.000372
    2.395724    0.000368
    2.470318    0.000364
    2.544912    0.000360
    2.619505    0.000356
    2.694099    0.000353
    2.768692    0.000349
    2.843286    0.000345
    2.917879    0.000342
    2.992473    0.000338
    3.067067    0.000335
    3.141660    0.000331
    3.216254    0.000328
    3.290847    0.000324
    3.365441    0.000321
    3.440034    0.000318
    3.514628    0.000315
    3.589222    0.000311
    3.663815    0.000308
    3.738409    0.000305
    3.813002    0.000302
    3.887596    0.000299
    3.962189    0.000296
    4.036783    0.000294
    4.111377    0.000291
    4.185970    0.000288
    4.260564    0.000285
    4.335157    0.000283
    4.409751    0.000280
    4.484344    0.000277
    4.558938    0.000275
    4.633532    0.000272
    4.708125    0.000270
    4.782719    0.000267
    4.857312    0.000265
    4.931906    0.000262
    5.006499    0.000260
    5.081093    0.000257
    5.155687    0.000255
    5.230280    0.000253
    5.304874    0.000251
    5.379467    0.000248
    5.454061    0.000246
    5.528654    0.000244
    5.603248    0.000242
    5.677842    0.000240
    5.752435    0.000238
    5.827029    0.000236
    5.901622    0.000233
    5.976216    0.000231
    6.050810    0.000229
    6.125403    0.000228
    6.199997    0.000226
    6.274590    0.000224
    6.349184    0.000222
    6.423777    0.000220
    6.498371    0.000218
    6.572965    0.000216
    6.647558    0.000215
    6.722152    0.000213
    6.796745    0.000211
    6.871339    0.000209
    6.945932    0.000208
    7.020526    0.000206
    7.095120    0.000204
    7.169713    0.000203
    7.244307    0.000201
    7.318900    0.000199
    7.393494    0.000198
    7.468087    0.000196
    7.542681    0.000195
    7.617275    0.000193
    7.691868    0.000192
    7.766462    0.000190
    7.841055    0.000189
    7.915649    0.000187
    7.990242    0.000186
    8.064836    0.000184
    8.139430    0.000183
    8.214023    0.000181
    8.288617    0.000180
    8.363210    0.000179
    8.437804    0.000177
    8.512397    0.000176
    8.586991    0.000175
    8.661585    0.000173
    8.736178    0.000172
    8.810772    0.000171
    8.885365    0.000170
    8.959959    0.000168
    9.034552    0.000167
    9.109146    0.000166
    9.183740    0.000165
    9.258333    0.000164
    9.332927    0.000162
    9.407520    0.000161
    9.482114    0.000160
    9.556707    0.000159
    9.631301    0.000158
    9.705895    0.000157
    9.780488    0.000156
    9.855082    0.000154
    9.929675    0.000153
   10.004269    0.000152
   10.078862    0.000151
   10.153456    0.000150
   10.228050    0.000149
   10.302643    0.000148
   10.377237    0.000147
   10.451830    0.000146
   10.526424    0.000145
   10.601017    0.000144
   10.675611    0.000143
   10.750205    0.000142
   10.824798    0.000141
   10.899392    0.000140
   10.973985    0.000139
   11.048579    0.000138
   11.123172    0.000138
   11.197766    0.000137
   11.272360    0.000136
   11.346953    0.000135
   11.421547    0.000134
   11.496140    0.000133
   11.570734    0.000132
   11.645327    0.000131
   11.719921    0.000130
   11.794515    0.000130
   11.869108    0.000129
   11.943702    0.000128
   12.018295    0.000127
   12.092889    0.000126
   12.167482    0.000126
   12.242076    0.000125
   12.316670    0.000124
   12.391263    0.000123
   12.465857    0.000122
   12.540450    0.000122
   12.615044    0.000121
   12.689637    0.000120
   12.764231    0.000119
   12.838825    0.000119
   12.913418    0.000118
   12.988012    0.000117
   13.062605    0.000117
   13.137199    0.000116
   13.211793    0.000115
   13.286386    0.000114
   13.360980    0.000114
   13.435573    0.000113
   13.510167    0.000112
   13.584760    0.000112
   13.659354    0.000111
   13.733948    0.000110
   13.808541    0.000110
   13.883135    0.000109
   13.957728    0.000108
   14.032322    0.000108
   14.106915    0.000107
   14.181509    0.000107
   14.256103    0.000106
   14.330696    0.000105
   14.405290    0.000105
   14.479883    0.000104
   14.554477    0.000103
   14.629070    0.000103
   14.703664    0.000102
   14.778258    0.000102
   14.852851    0.000101
   14.927445    0.000101
   15.002038    0.000100
   15.076632    0.000099
   15.151225    0.000099
   15.225819    0.000098
   15.300413    0.000098
   15.375006    0.000097
   15.449600    0.000097
   15.524193    0.000096
   15.598787    0.000096
   15.673380    0.000095
   15.747974    0.000095
   15.822568    0.000094
   15.897161    0.000094
   15.971755    0.000093
   16.046348    0.000092
   16.120942    0.000092
   16.195535    0.000091
   16.270129    0.000091
   16.344723    0.000091
   16.419316    0.000090
   16.493910    0.000090
   16.568503    0.000089
   16.643097    0.000089
   16.717690    0.000088
   16.792284    0.000088
   16.866878    0.000087
   16.941471    0.000087
   17.016065    0.000086
   17.090658    0.000086
   17.165252    0.000085
   17.239845    0.000085
   17.314439    0.000084
   17.389033    0.000084
   17.463626    0.000084
   17.538220    0.000083
   17.612813    0.000083
   17.687407    0.000082
   17.762000    0.000082
   17.836594    0.000081
   17.911188    0.000081
   17.985781    0.000081
   18.060375    0.000080
   18.134968    0.000080
   18.209562    0.000079
   18.284155    0.000079
   18.358749    0.000079
   18.433343    0.000078
   18.507936    0.000078
   18.582530    0.000077
   18.657123    0.000077
   18.731717    0.000077
   18.806310    0.000076
   18.880904    0.000076
   18.955498    0.000076
   19.030091    0.000075
   19.104685    0.000075
   19.179278    0.000074
   19.253872    0.000074
   19.328465    0.000074
   19.403059    0.000073
   19.477653    0.000073
   19.552246    0.000073
