# energy [eV], total DOS
  -14.005023    0.009153
  -13.945205    0.009297
  -13.885388    0.009444
  -13.825570    0.009594
  -13.765752    0.009749
  -13.705934    0.009908
  -13.646117    0.010072
  -13.586299    0.010240
  -13.526481    0.010412
  -13.466664    0.010590
  -13.406846    0.010772
  -13.347028    0.010960
  -13.287210    0.011153
  -13.227393    0.011352
  -13.167575    0.011557
  -13.107757    0.011769
  -13.047940    0.011986
  -12.988122    0.012211
  -12.928304    0.012443
  -12.868486    0.012682
  -12.808669    0.012929
  -12.748851    0.013185
  -12.689033    0.013449
  -12.629216    0.013722
  -12.569398    0.014004
  -12.509580    0.014297
  -12.449762    0.014600
  -12.389945    0.014914
  -12.330127    0.015240
  -12.270309    0.015578
  -12.210491    0.015929
  -12.150674    0.016294
  -12.090856    0.016674
  -12.031038    0.017069
  -11.971221    0.017481
  -11.911403    0.017909
  -11.851585    0.018357
  -11.791767    0.018824
  -11.731950    0.019312
  -11.672132    0.019823
  -11.612314    0.020358
  -11.552497    0.020918
  -11.492679    0.021507
  -11.432861    0.022124
  -11.373043    0.022774
  -11.313226    0.023458
  -11.253408    0.024180
  -11.193590    0.024942
  -11.133773    0.025747
  -11.073955    0.026601
  -11.014137    0.027506
  -10.954319    0.028468
  -10.894502    0.029492
  -10.834684    0.030584
  -10.774866    0.031751
  -10.715048    0.033002
  -10.655231    0.034345
  -10.595413    0.035790
  -10.535595    0.037350
  -10.475778    0.039038
  -10.415960    0.040871
  -10.356142    0.042868
  -10.296324    0.045050
  -10.236507    0.047445
  -10.176689    0.050083
  -10.116871    0.053003
  -10.057054    0.056250
   -9.997236    0.059881
   -9.937418    0.063962
   -9.877600    0.068581
   -9.817783    0.073843
   -9.757965    0.079884
   -9.698147    0.086879
   -9.638330    0.095052
   -9.578512    0.104703
   -9.518694    0.116232
   -9.458876    0.130184
   -9.399059    0.147310
   -9.339241    0.168666
   -9.279423    0.195747
   -9.219605    0.230650
   -9.159788    0.276214
   -9.099970    0.335909
   -9.040152    0.413125
   -8.980335    0.509730
   -8.920517    0.625236
   -8.860699    0.758952
   -8.800881    0.909371
   -8.741064    1.065684
   -8.681246    1.204311
   -8.621428    1.288145
   -8.561611    1.273916
   -8.501793    1.150093
   -8.441975    0.959656
   -8.382157    0.765538
   -8.322340    0.604706
   -8.262522    0.483771
   -8.202704    0.396024
   -8.142887    0.332768
   -8.083069    0.286948
   -8.023251    0.253531
   -7.963433    0.229066
   -7.903616    0.211207
   -7.843798    0.198352
   -7.783980    0.189397
   -7.724163    0.183581
   -7.664345    0.180376
   -7.604527    0.179425
   -7.544709    0.180493
   -7.484892    0.183445
   -7.425074    0.188223
   -7.365256    0.194838
   -7.305438    0.203366
   -7.245621    0.213948
   -7.185803    0.226796
   -7.125985    0.242206
   -7.066168    0.260570
   -7.006350    0.282405
   -6.946532    0.308388
   -6.886714    0.339403
   -6.826897    0.376620
   -6.767079    0.421594
   -6.707261    0.476424
   -6.647444    0.543978
   -6.587626    0.628237
   -6.527808    0.734819
   -6.467990    0.871771
   -6.408173    1.050766
   -6.348355    1.288778
   -6.288537    1.610045
   -6.228720    2.046758
   -6.168902    2.632928
   -6.109084    3.378414
   -6.049266    4.214582
   -5.989449    4.963611
   -5.929631    5.438599
   -5.869813    5.576158
   -5.809995    5.374981
   -5.750178    4.850644
   -5.690360    4.144928
   -5.630542    3.470350
   -5.570725    2.945209
   -5.510907    2.565460
   -5.451089    2.272713
   -5.391271    2.016671
   -5.331454    1.768029
   -5.271636    1.513094
   -5.211818    1.260860
   -5.152001    1.034967
   -5.092183    0.850204
   -5.032365    0.706149
   -4.972547    0.595193
   -4.912730    0.509143
   -4.852912    0.441443
   -4.793094    0.387320
   -4.733277    0.343379
   -4.673459    0.307206
   -4.613641    0.277062
   -4.553823    0.251675
   -4.494006    0.230096
   -4.434188    0.211609
   -4.374370    0.195664
   -4.314552    0.181831
   -4.254735    0.169774
   -4.194917    0.159224
   -4.135099    0.149965
   -4.075282    0.141823
   -4.015464    0.134656
   -3.955646    0.128348
   -3.895828    0.122805
   -3.836011    0.117948
   -3.776193    0.113716
   -3.716375    0.110058
   -3.656558    0.106934
   -3.596740    0.104316
   -3.536922    0.102183
   -3.477104    0.100524
   -3.417287    0.099337
   -3.357469    0.098628
   -3.297651    0.098416
   -3.237834    0.098731
   -3.178016    0.099617
   -3.118198    0.101136
   -3.058380    0.103373
   -2.998563    0.106442
   -2.938745    0.110497
   -2.878927    0.115745
   -2.819109    0.122467
   -2.759292    0.131051
   -2.699474    0.142036
   -2.639656    0.156181
   -2.579839    0.174569
   -2.520021    0.198743
   -2.460203    0.230855
   -2.400385    0.273712
   -2.340568    0.330492
   -2.280750    0.404184
   -2.220932    0.497300
   -2.161115    0.609077
   -2.101297    0.725493
   -2.041479    0.813693
   -1.981661    0.843339
   -1.921844    0.816517
   -1.862026    0.762123
   -1.802208    0.704645
   -1.742391    0.650430
   -1.682573    0.599630
   -1.622755    0.549262
   -1.562937    0.496438
   -1.503120    0.447257
   -1.443302    0.407873
   -1.383484    0.376537
   -1.323667    0.349744
   -1.263849    0.327862
   -1.204031    0.314811
   -1.144213    0.314394
   -1.084396    0.326398
   -1.024578    0.343647
   -0.964760    0.352331
   -0.904942    0.343999
   -0.845125    0.326639
   -0.785307    0.314171
   -0.725489    0.314371
   -0.665672    0.328425
   -0.605854    0.352605
   -0.546036    0.379878
   -0.486218    0.405477
   -0.426401    0.429797
   -0.366583    0.456061
   -0.306765    0.490459
   -0.246948    0.536000
   -0.187130    0.586755
   -0.127312    0.638474
   -0.067494    0.696519
   -0.007677    0.758951
    0.052141    0.806196
    0.111959    0.820599
    0.171776    0.809421
    0.231594    0.801374
    0.291412    0.821651
    0.351230    0.872749
    0.411047    0.936359
    0.470865    0.992269
    0.530683    1.029245
    0.590501    1.033397
    0.650318    0.999483
    0.710136    0.950122
    0.769954    0.915295
    0.829771    0.907939
    0.889589    0.917878
    0.949407    0.926168
    1.009225    0.928383
    1.069042    0.925840
    1.128860    0.906930
    1.188678    0.861940
    1.248495    0.800459
    1.308313    0.743695
    1.368131    0.704828
    1.427949    0.676613
    1.487766    0.645488
    1.547584    0.610207
    1.607402    0.571489
    1.667219    0.524831
    1.727037    0.475537
    1.786855    0.436285
    1.846673    0.410781
    1.906490    0.391552
    1.966308    0.368977
    2.026126    0.337329
    2.085944    0.297592
    2.145761    0.257411
    2.205579    0.222672
    2.265397    0.193668
    2.325214    0.169052
    2.385032    0.148638
    2.444850    0.132481
    2.504668    0.120118
    2.564485    0.110856
    2.624303    0.104029
    2.684121    0.098949
    2.743938    0.094775
    2.803756    0.090757
    2.863574    0.086811
    2.923392    0.083364
    2.983209    0.080726
    3.043027    0.078957
    3.102845    0.078010
    3.162662    0.077841
    3.222480    0.078443
    3.282298    0.079859
    3.342116    0.082194
    3.401933    0.085625
    3.461751    0.090431
    3.521569    0.097035
    3.581387    0.106059
    3.641204    0.118369
    3.701022    0.135006
    3.760840    0.156668
    3.820657    0.182179
    3.880475    0.206335
    3.940293    0.220942
    4.000111    0.221452
    4.059928    0.211553
    4.119746    0.199776
    4.179564    0.192901
    4.239381    0.193766
    4.299199    0.203180
    4.359017    0.221807
    4.418835    0.250893
    4.478652    0.292097
    4.538470    0.346660
    4.598288    0.415135
    4.658105    0.498849
    4.717923    0.598500
    4.777741    0.708510
    4.837559    0.813177
    4.897376    0.882619
    4.957194    0.884002
    5.017012    0.816743
    5.076829    0.719686
    5.136647    0.629716
    5.196465    0.557048
    5.256283    0.499095
    5.316100    0.455595
    5.375918    0.430105
    5.435736    0.426774
    5.495554    0.448492
    5.555371    0.496794
    5.615189    0.569735
    5.675007    0.657611
    5.734824    0.743714
    5.794642    0.807741
    5.854460    0.824323
    5.914278    0.785232
    5.974095    0.719000
    6.033913    0.662850
    6.093731    0.633303
    6.153548    0.621970
    6.213366    0.607970
    6.273184    0.576955
    6.333002    0.530401
    6.392819    0.483342
    6.452637    0.452059
    6.512455    0.445112
    6.572272    0.465556
    6.632090    0.513998
    6.691908    0.585912
    6.751726    0.664194
    6.811543    0.719384
    6.871361    0.731229
    6.931179    0.711309
    6.990997    0.691172
    7.050814    0.688207
    7.110632    0.694772
    7.170450    0.699127
    7.230267    0.704279
    7.290085    0.716990
    7.349903    0.732848
    7.409721    0.734490
    7.469538    0.707493
    7.529356    0.660891
    7.589174    0.621819
    7.648991    0.611720
    7.708809    0.635332
    7.768627    0.681462
    7.828445    0.723412
    7.888262    0.727249
    7.948080    0.681273
    8.007898    0.610412
    8.067715    0.543457
    8.127533    0.484408
    8.187351    0.423090
    8.247169    0.359020
    8.306986    0.301554
    8.366804    0.256747
    8.426622    0.224985
    8.486440    0.204516
    8.546257    0.193743
    8.606075    0.191893
    8.665893    0.198902
    8.725710    0.214605
    8.785528    0.236969
    8.845346    0.261061
    8.905164    0.283262
    8.964981    0.305465
    9.024799    0.326957
    9.084617    0.336473
    9.144434    0.321459
    9.204252    0.284278
    9.264070    0.240900
    9.323888    0.204339
    9.383705    0.177724
    9.443523    0.157467
    9.503341    0.138416
    9.563158    0.118965
    9.622976    0.101001
    9.682794    0.086105
    9.742612    0.074389
    9.802429    0.065282
    9.862247    0.058146
    9.922065    0.052472
    9.981882    0.047890
   10.041700    0.044141
   10.101518    0.041044
   10.161336    0.038476
   10.221153    0.036351
   10.280971    0.034616
   10.340789    0.033247
   10.400607    0.032244
   10.460424    0.031639
   10.520242    0.031503
   10.580060    0.031948
   10.639877    0.033124
   10.699695    0.035131
   10.759513    0.037758
   10.819331    0.040002
   10.879148    0.040180
   10.938966    0.037596
   10.998784    0.033491
   11.058601    0.029417
   11.118419    0.026051
   11.178237    0.023438
   11.238055    0.021424
   11.297872    0.019846
   11.357690    0.018581
   11.417508    0.017540
   11.477325    0.016664
   11.537143    0.015911
   11.596961    0.015253
   11.656779    0.014669
   11.716596    0.014145
   11.776414    0.013669
   11.836232    0.013233
   11.896050    0.012831
   11.955867    0.012458
   12.015685    0.012111
   12.075503    0.011785
   12.135320    0.011479
   12.195138    0.011190
   12.254956    0.010917
   12.314774    0.010658
   12.374591    0.010411
   12.434409    0.010177
   12.494227    0.009952
   12.554044    0.009738
   12.613862    0.009533
   12.673680    0.009336
   12.733498    0.009147
   12.793315    0.008966
   12.853133    0.008791
   12.912951    0.008623
   12.972768    0.008461
   13.032586    0.008304
   13.092404    0.008153
   13.152222    0.008007
   13.212039    0.007866
   13.271857    0.007730
   13.331675    0.007598
   13.391493    0.007470
   13.451310    0.007345
   13.511128    0.007225
   13.570946    0.007108
   13.630763    0.006995
   13.690581    0.006885
   13.750399    0.006778
   13.810217    0.006674
   13.870034    0.006572
   13.929852    0.006474
   13.989670    0.006378
   14.049487    0.006285
   14.109305    0.006194
   14.169123    0.006105
   14.228941    0.006019
   14.288758    0.005934
   14.348576    0.005852
   14.408394    0.005772
   14.468211    0.005694
   14.528029    0.005618
   14.587847    0.005543
   14.647665    0.005470
   14.707482    0.005399
   14.767300    0.005329
   14.827118    0.005261
   14.886936    0.005195
   14.946753    0.005130
   15.006571    0.005066
   15.066389    0.005004
   15.126206    0.004943
   15.186024    0.004883
   15.245842    0.004824
   15.305660    0.004767
   15.365477    0.004711
   15.425295    0.004656
   15.485113    0.004602
   15.544930    0.004549
   15.604748    0.004498
   15.664566    0.004447
   15.724384    0.004397
   15.784201    0.004348
   15.844019    0.004300
